[864,-843,744,-227,-299,709,-936,727,-300,-259,638,-935,749,-413,-188,619,-939,833,-453,-142,713,-903,914,-323,-122,767,-864,878,-321,-128,795,-836,896,-280,-112,755,-808,1008,-69,117,1032,-423,1160,78,265,1068,-353,-674,1917,-2082,1917,60,1560,629,-764,1833,1912,-2087,459,812,1407,253,-525,1904,-874,1904,114,1564,446,-1422,1785,1895,-2104,139,620,1172,-149,-628,1880,0,0,0,0,0,0,0,0,0,0,0,0,0,0,0,0,0,0,0,0,0,0,0,0,0,0,0,0,0,0,0,0,0,0,0,0,0,0,0,0,0,0,0,0,0,0,399,-449,1157,-345,645,592,-208,1211,-153,710,777,5,800,1643,-2356,315,21,1039,-588,525,-135,-669,668,-1126,304,-251,-848,587,-1185,230,-308,-818,577,-1153,309,-198,-645,696,-943,504,100,-1621,999,1439,-2560,-509,-318,678,-932,520,-212,-336,614,-705,720,-347,-302,753,-872,566,-45,-267,716,-656,593,-122,-260,650,-703,578,-189,-252,601,-708,578,-220,-217,577,-690,624,0,0,0,0,0,0,0,0,0,0,0,0,0,0,0,0,0,0,0,0,0,0,0,0,0,0,0,0,0,0,0,0,0,0,0,0,0,0,0,0,0,0,0,0,0,764,791,630,624,707,534,661,592,526,676,446,612,533,438,651,394,540,680,780,518,-354,263,355,44,542,1,368,292,59,526,21,371,295,91,514,63,377,330,77,572,686,620,-478,-359,704,605,549,567,595,475,435,534,-670,-1684,523,558,-2328,-309,-144,20,-956,-1484,548,-2039,548,-1440,280,-149,-456,588,282,390,544,677,241,-488,276,-97,-278,420,533,-2753,-319,-186,309,-457,289,-144,-166,316,-405,0,0,0,0,0,0,0,0,0,0,0,0,0,0,0,0,0,0,0,0,0,0,0,0,0,0,0,0,0,0,0,0,0,0,537,697,758,737,751,761,768,778,785,793,808,815,748,887,478,184,801,667,758,486,217,781,166,518,658,233,898,699,761,919,960,761,-121,670,321,98,878,-159,623,531,147,968,185,802,281,-162,1209,1210,-2788,358,250,1138,384,989,877,566,1093,127,916,722,421,1191,376,1095,745,516,1370,511,-975,1590,1566,1566,-2357,-2322,-2435,-1949,-764,-329,-360,-301,-270,-244,-225,-202,-184,-170,-145,-137,-112,-133,-175,-190,-215,-232,-241,-270,-269,-289,-298,0,0,0,0,0,0,0,0,0,0,0,0,0,0,0,0,0,0,0,0,0,0,0,0,0,0,-360,-346,-356,-351,-348,-357,-344,-352,-349,-344,-357,-334,-359,-367,-318,-370,-356,-333,-378,-328,-363,-355,-337,-368,-339,-357,-350,-351,-356,-350,-364,-349,-364,-365,-350,-382,-358,-372,-391,-359,-403,-380,-382,-416,-374,-423,-399,-401,-439,-395,-443,-426,-426,-456,-429,-464,-448,-461,-478,-456,-498,-474,-491,-512,-483,-535,-507,-523,-556,-511,-575,-551,-553,-593,-557,-602,-589,-600,-618,-602,-642,-623,-644,-662,-641,-605,-709,2428,1972,2370,2267,17,968,1112,-999,1141,2486,-1558,-1639,-518,839,-253,-1913,-1821,-1155,128,-157,-182,276,881,1573,1719,114,-291,514,-894,-238,-212,-623,109,-335,79,-166,0,0,-464,395,-23,-187,496,-669,905,1318,-540,-70,786,1892,2362,849,-1406,-2161,-1343,-351,-243,-53,71,-47,94,-44,71,144,42,208,17,271,582,520,1122,1688,1887,2026,2144,1446,187,27,31,-118,39,-46,45,70,-72,111,-37,-58,14,-178,42,-110,-56,71,-39,944,838,-233,-121,-820,-1132,-1067,-1780,-1863,-1279,-56,-17,-122,160,-162,99,-32,-74,139,-185,158,65,48,2,102,76,69,99,51,90,65,59,82,41,75,52,46,72,24,69,36,38,59,17,55,28,24,50,3,46,15,16,39,-6,37,4,8,30,-13,29,-1,0,27,-21,26,-8,-2,22,-24,22,-11,-8,20,-30,20,-17,-10,17,-33,17,-20,-12,12,-35,15,-23,-14,10,-38,16,-24,-13,6,-38,14,-26,-13,7,-39,16,-26,-11,7,-36,17,-27,-9,8,-34,17,-26,-7,9,-33,19,-25,-4,6,-31,20,-25,-3,6,-31,20,-25,-3,3,-30,15,-29,-4,-2,-31,12,-32,-4,-4,-31,10,-33,-6,-11,-31,3,-37,-7,-16,-31,0,-38,-8,-19,-31,-2,-37,-10,-20,-29,-6,-43,20,39,-16,35,2,3,30,-13,31,2,8,30,-7,34,2,10,26,-7,33,3,12,27,-4,33,3,15,26,-5,31,0,14,23,-4,32,0,14,22,-4,32,1,17,22,-4,31,-1,16,20,-4,31,-1,16,18,-5,31,-3,16,16,-7,28,-5,17,19,-3,30,-3,17,14,-3,28,-8,14,13,-4,26,-8,17,14,-2,28,-8,17,11,-3,28,-6,18,11,-2,27,-10,17,9,-3,26,-10,18,6,-6,24,-11,17,4,-7,22,-14,18,1,-9,24,-21,16,0,-13,25,-21,17,0,-12,25,-22,17,0,-12,22,-22,16,0,-7,23,-18,21,0,-6,22,-20,20,-1,-6,24,-19,21,-3,-6,22,-19,20,-2,-4,20,-16,19,-4,0,20,-17,19,-5,-2,16,-17,19,-5,-2,14,-17,17,-7,-1,14,-17,17,-7,0,13,-17,17,-9,-1,9,-19,16,-10,0,10,-18,14,-14,-3,4,-22,12,-17,-4,2,-22,12,-19,-4,2,-24,9,-20,-4,0,-24,7,-24,-7,-3,-26,7,-25,-6,-3,-26,6,-25,-6,-6,-29,3,-29,-10,-10,-31,0,-33,-14,-15,-32,-2,-37,-15,-19,-37,-6,-38,-16,-21,-39,-8,-40,-18,-23,-75,73,-103,-1063,-815,-185,-450,82,1025,662,-58,-10,7,0,-12,-11,-6,-23,-1,-27,-5,-20,-20,33,22,9,41,4,39,26,20,46,12,41,26,21,43,14,43,29,17,46,6,40,20,19,38,9,37,23,16,39,3,37,15,13,36,2,35,13,13,33,1,31,12,9,30,-4,31,7,9,24,-6,23,2,3,21,-11,22,-1,2,17,-14,17,-7,-2,11,-18,14,-11,-4,10,-22,12,-16,-8,3,-23,9,-18,-10,2,-25,9,-20,-9,2,-24,7,-20,-7,0,-24,10,-19,-5,4,-21,14,-17,-1,5,-18,19,-8,7,2,-27,180,-602,-1748,30,1333,1004,412,674,-1949,425,421,-63,56,19,29,34,24,43,29,44,41,-13,22,25,8,45,13,42,44,30,64,34,59,61,46,79,48,76,71,19,256,-318,-1454,-600,57,-198,157,-78,53,150,-40,253,8,118,164,-35,228,-16,131,136,-79,805,527,180,581,-78,183,-32,-676,74,1292,1654,1545,285,-1847,-1847,-90,-194,165,125,-30,298,-15,223,195,32,0,0,0,0,0,0,0,0,0,0,0,0,0,0,0,0,0,0,0,0,-364,-663,-756,-271,-954,-373,-745,-830,-345,-1025,-429,-807,-898,-500,-1194,-598,-988,-1183,-847,-1443,-1222,-1195,-282,215,86,323,-16,292,122,51,284,-64,360,136,-76,57,-512,-97,-149,-281,-241,-817,276,1803,2291,1481,316,147,216,164,156,158,136,149,132,132,135,117,131,113,119,120,70,107,122,106,151,126,151,159,145,182,156,177,184,166,202,159,223,187,-115,50,320,-382,-1204,-346,1283,680,-1240,106,979,139,201,-237,3,168,-24,21,0,0,0,0,0,0,0,0,0,0,0,0,0,0,0,0,0,0,0,0,0,0,0,0,0,0,0,26,60,18,54,33,31,51,21,45,36,24,52,17,49,33,25,52,16,50,30,31,50,18,44,32,26,55,15,51,31,34,53,22,51,35,34,56,22,54,35,35,57,24,60,38,42,61,32,62,42,43,62,29,64,40,47,62,34,65,42,46,62,32,67,43,51,66,36,71,45,54,64,39,72,47,55,69,40,74,48,61,69,43,76,48,60,71,45,81,52,64,74,49,83,51,47,160,-130,-1530,-361,1553,340,-221,-9,-75,-48,-74,-56,-63,-65,-58,-62,-64,-51,-72,-42,-79,-78,-40,-73,-49,-47,-64,-32,-60,-42,-36,-60,-20,-57,-28,-37,-46,-20,-49,-30,-26,-47,-10,-46,-19,-27,-40,-8,-40,-15,-20,-33,-3,-34,-12,-15,-31,0,-35,-2,-15,-23,2,-29,-5,-10,-23,6,-28,2,-9,-20,6,-24,4,-8,-14,10,-21,6,-5,-14,13,-21,10,-6,-10,12,-20,9,-4,-8,16,-20,13,-3,-7,15,-18,12,-4,-4,16,-17,13,-3,-5,16,-14,19,-3,-1,17,-12,20,0,0,19,-14,19,-4,0,17,-14,18,-6,-2,13,-31,53,101,33,32,-96,41,1027,527,-865,-491,60,-16,-28,22,-105,123,570,-141,-468,-71,24,12,-11,-17,-11,1,-29,-162,465,884,-21,75,-192,-831,-145,54,-71,19,46,-17,-31,-16,115,16,-115,6,-1,15,-34,-62,-30,-58,-47,-42,-69,-31,-68,-47,-48,-77,-20,-8,-44,-54,-3,26,-189,-169,54,33,-5,-2,12,-3,5,6,-3,11,-3,5,7,-4,13,-4,8,4,-10,41,28,11,42,5,32,25,11,39,4,31,22,10,39,3,28,19,8,38,2,31,18,8,33,0,28,15,8,35,0,29,13,7,32,-3,28,12,6,31,-1,27,11,7,32,-2,28,12,8,29,-2,26,7,5,24,-5,26,5,7,24,-4,27,7,10,23,-2,26,3,9,22,-3,25,3,10,20,-2,25,2,11,18,-1,24,1,13,18,1,26,2,15,17,3,25,3,17,15,5,24,4,20,12,6,23,2,19,13,5,22,3,20,13,6,28,3,20,16,7,28,3,21,18,7,28,4,20,16,5,28,3,22,17,7,29,3,23,15,18,10,-182,-210,-256,-382,-250,-322,-310,-204,-207,-36,20,19,19,11,33,5,26,18,9,29,3,26,17,7,29,3,25,14,8,28,2,25,13,8,29,3,27,15,9,29,0,24,12,8,26,0,24,11,8,26,-2,22,8,8,26,-1,22,6,3,21,-5,20,6,7,23,-2,25,6,5,21,-4,22,6,6,22,-4,21,4,7,22,-5,22,3,4,18,-8,18,0,4,19,-7,18,-1,3,15,-10,17,-3,1,13,-10,17,-4,2,11,-12,16,-5,3,11,-11,18,-5,2,10,-12,16,-8,1,9,-12,14,-10,0,5,-16,12,-11,3,8,-16,11,-12,0,6,-15,13,-12,1,4,-15,13,-14,0,4,-14,13,-11,4,4,-13,13,-14,3,4,-13,13,-14,3,0,-14,14,-13,4,1,-13,11,-15,4,0,-14,11,-15,3,-1,-11,12,-15,7,1,-9,13,-14,7,0,-8,13,-14,7,-1,-7,12,-11,10,0,-1,11,-12,10,-1,-1,10,-12,8,-6,-4,8,-13,11,-3,-2,9,-12,10,-7,-3,8,-12,12,-5,-2,9,-14,8,-6,0,8,-12,10,-4,0,6,-11,11,-7,0,7,-11,10,-7,0,5,-10,9,-8,2,3,-10,9,-8,3,3,-6,10,-8,6,5,-5,11,-7,5,1,-7,10,-10,3,2,-8,12,-7,4,2,-6,13,-9,4,3,-8,13,-9,4,4,-7,11,-10,5,2,-8,10,-10,7,3,-8,10,-10,8,2,-9,9,-10,7,2,-7,10,-12,3,-1,-7,10,-12,6,0,-6,11,-10,7,0,-4,12,-10,8,0,-5,11,-11,6,-2,-5,10,-12,7,0,-6,8,-12,5,-5,-9,6,-13,5,-5,-6,8,-12,8,-3,-5,7,-13,8,-4,-5,7,-12,8,-5,-5,8,-11,9,-4,-3,8,-12,11,-2,-2,9,-10,10,-5,-2,7,-12,10,-5,-2,8,-10,9,-5,-2,5,-11,11,-6,-1,7,-11,10,-4,1,7,-11,9,-8,-1,6,-10,11,-5,0,4,-10,11,-8,0,4,-10,10,-6,3,5,-10,10,-9,1,5,-10,10,-9,2,6,-7,14,-6,4,5,-8,12,-9,2,4,-8,10,-10,2,3,-7,14,-6,5,3,-7,12,-9,5,4,-8,13,-8,5,3,-7,11,-8,5,0,-8,11,-8,7,3,-5,12,-9,8,3,-6,12,-7,9,2,-5,11,-10,6,-1,-7,10,-10,8,0,-7,9,-11,6,-1,-7,9,-11,6,-2,-8,7,-13,7,-1,-5,9,-12,6,-4,-7,7,-14,6,-4,-5,10,-10,8,-3,-5,7,-12,8,-3,-4,8,-11,8,-6,-4,8,-12,10,-3,-3,6,-11,10,-5,-1,8,-12,9,-6,-4,6,-12,8,-7,-1,5,-14,10,-7,-2,8,-9,10,-8,0,8,-10,11,-5,1,7,-9,12,-6,0,4,-11,11,-7,0,3,-11,11,-8,0,4,-11,9,-7,3,5,-10,11,-7,4,5,-10,10,-10,0,2,-12,8,-11,2,1,-12,8,-11,3,3,-9,12,-10,3,2,-9,11,-9,5,4,-7,12,-9,5,0,-7,12,-10,6,1,-9,10,-10,5,0,-8,10,-11,6,0,-6,11,-10,7,2,-5,12,-9,8,1,-3,12,-9,9,0,-3,14,-8,9,0,-3,12,-9,10,0,-3,11,-11,10,0,-3,12,-9,11,-1,-5,9,-11,7,-3,-3,9,-12,8,-3,-2,8,-13,8,-4,-2,10,-9,10,-4,-2,9,-11,8,-5,-1,9,-9,12,-4,-2,8,-10,10,-5,-1,7,-12,9,-6,0,8,-10,10,-7,-3,3,-13,8,-8,0,7,-10,10,-8,0,6,-13,9,-10,-1,4,-12,10,-9,0,3,-12,11,-8,0,5,-11,10,-10,1,5,-11,10,-9,2,6,-10,11,-8,1,2,-12,10,-10,1,2,-10,10,-10,2,2,-9,11,-9,6,2,-9,11,-9,5,2,-8,11,-10,5,0,-10,11,-11,3,1,-9,10,-11,5,1,-7,10,-11,7,0,-5,13,-11,5,0,-7,11,-10,6,-1,-9,9,-11,7,-1,-8,9,-12,8,0,-5,11,-11,8,0,-4,12,-10,8,-1,-5,10,-10,9,-1,-4,9,-11,10,-2,-4,9,-11,10,-1,-4,9,-11,10,-2,-2,9,-11,10,-3,-2,10,-10,11,-4,-3,7,-10,13,-3,0,10,-10,11,-4,0,9,-10,11,-5,-2,6,-12,11,-5,0,9,-10,14,-2,1,9,-9,13,-5,0,6,-11,12,-7,0,5,-11,13,-7,0,6,-10,11,-8,2,7,-8,14,-5,3,6,-9,12,-6,5,7,-8,13,-6,5,5,-9,12,-9,2,4,-8,11,-10,4,4,-9,13,-9,4,6,-5,13,-7,7,3,-6,15,-8,7,5,-5,16,-6,10,6,-4,14,-7,10,5,-4,14,-7,11,5,-1,17,-5,14,7,0,18,-5,14,7,0,17,-5,13,5,0,18,-4,16,6,2,20,-6,15,5,0,20,-8,24,0,-11,39,-36,14,13,-32,39,-32,11,10,-32,39,-32,15,9,-29,41,-33,20,11,-28,44,-38,19,8,-31,45,-42,18,5,-34,46,-43,21,3,-37,47,-48,20,2,-38,45,-51,23,0,-39,47,-53,23,-1,-38,48,-56,24,-5,-38,48,-55,28,-6,-37,48,-59,28,-9,-37,45,-59,32,-8,-31,49,-58,35,-9,-27,48,-57,40,-12,-26,48,-59,41,-15,-24,48,-60,44,-15,-23,49,-60,45,-16,-19,50,-54,52,-14,-13,51,-54,53,-16,-11,51,-49,56,-16,-4,51,-49,58,-17,-3,49,-50,59,-17,0,50,-46,63,-19,5,50,-44,68,-16,10,49,-43,68,-19,12,48,-43,69,-21,14,50,-39,72,-23,17,48,-46,71,-31,11,44,-53,70,-34,8,40,-55,72,-40,9,38,-60,71,-49,6,31,-72,69,-58,0,29,-73,66,-61,5,31,-67,72,-56,12,22,-71,69,-76,4,15,-81,68,-80,5,13,-80,70,-78,11,7,-80,71,-85,12,2,-84,68,-96,11,-3,-89,65,-107,11,1,-79,71,-90,26,0,-72,73,-95,25,0,-70,72,-83,35,-3,-63,73,-92,35,-4,-61,76,-81,43,-8,-56,75,-88,44,-9,-55,76,-77,53,-9,-44,73,-84,54,-15,-46,73,-84,56,-15,-39,74,-79,61,-20,-36,67,-89,59,-38,-46,60,-106,56,-38,-44,68,-84,69,-15,-15,72,-73,74,-20,-13,70,-70,77,-24,-10,67,-73,78,-28,-9,66,-71,80,-27,-2,67,-67,0,0,0,0,0,0,0,0,0,0,0,0,0,0,0,0,0,2,51,-70,85,-44,8,50,-67,84,-53,8,39,-77,81,-67,3,37,-79,83,-61,12,35,-76,83,-67,14,30,-77,81,-75,13,21,-82,82,-79,17,21,-78,83,-78,20,14,-81,80,-87,20,7,-87,78,-89,22,10,-75,83,-81,29,9,-68,80,-86,29,0,-70,78,-89,32,1,-67,78,-82,40,0,-59,81,-79,44,4,-47,82,-75,52,3,-42,85,-70,58,3,-36,84,-66,61,-3,-35,77,-78,58,-10,-37,76,-76,61,-16,-35,69,-87,59,-24,-38,65,-91,58,0,0,0,0,0,0,0,0,0,0,0,0,0,0,68,-27,-18,61,-76,70,-33,-17,60,-75,75,-21,0,73,-49,84,-22,5,64,-59,81,-23,5,61,-54,80,-26,9,56,-55,80,-27,12,55,-52,82,-31,15,51,-54,82,-33,15,45,-56,79,-44,13,41,-59,77,-46,15,36,-58,77,-52,17,25,-71,74,-58,16,26,-64,73,-67,17,19,-67,77,-67,20,18,-63,76,-70,26,15,-67,79,-63,32,20,-52,81,-68,35,14,-55,80,-72,34,8,-58,77,-75,35,6,-55,77,-74,37,3,-52,72,-79,41,-1,-55,71,-77,44,-5,-51,70,-81,41,-12,0,0,0,0,0,0,63,-86,49,-20,-44,65,-91,47,-21,-40,63,-88,54,-33,-46,59,-97,50,-37,-44,56,-97,54,-28,-31,59,-86,61,-28,-24,59,-81,63,-29,-20,60,-74,66,-28,-12,56,-75,65,-36,-14,54,-75,67,-30,-5,53,-64,73,-33,-1,52,-65,74,-33,1,50,-64,75,-36,5,47,-64,75,-41,5,47,-59,76,-38,14,45,-58,77,-40,15,40,-58,75,-46,16,35,-60,74,-48,17,32,-58,73,-50,20,29,-56,74,-48,24,26,-52,75,-50,29,26,-48,76,-53,31,20,-51,75,-56,31,17,-47,76,-56,35,17,0,0,0,0,11,-46,71,-64,35,6,-45,70,-66,35,1,-45,68,-68,39,0,-46,66,-63,43,-1,-39,65,-66,43,-9,-40,61,-72,44,-8,-35,63,-70,47,-13,-36,58,-73,45,-21,-36,55,-79,46,-30,-41,50,-85,44,-30,-34,53,-77,50,-27,-24,50,-80,52,-34,-27,48,-80,51,-37,-24,47,-77,56,-31,-18,44,-73,59,-35,-15,44,-73,58,-33,-8,47,-60,63,-31,0,45,-61,63,-37,-2,39,-64,62,-37,1,40,-56,64,-39,4,35,-58,63,-42,5,31,-59,62,-45,6,31,-52,66,-34,16,30,-46,66,-38,17,25,-48,65,-46,14,20,-54,61,-48,16,26,-41,62,-37,27,24,-32,64,-41,27,17,-38,60,-45,28,14,-37,62,-45,31,14,-33,62,-44,35,12,-33,59,-51,32,7,-33,59,-49,34,5,-29,59,-43,40,7,-22,57,-42,42,2,-20,56,-46,41,1,-19,57,-44,44,-1,-17,56,-47,46,-3,-19,51,-49,43,-8,-16,49,-49,41,-10,-15,45,-38,43,-4,-6,38,-33,39,-12,-4,31,-38,36,-20,-9,25,-48,31,-31,-18,19,-58,25,-37,-24,13,-60,20,-37,-26,3,-56,8,-41,-22,-8,-55,1,-51,-27,-19,-64,-7,-59,-34,-28,-68,-17,-69,-43,-41,-78,-27,-78,-51,-50,-84,-37,-90,-60,-62,-93,-82,-48,-68,-1134,-2104,-2034,-1353,-580,-226,-226,-242,-77,-231,-58,-189,-172,1333,2108,2050,1679,466,-76,75,16,236,148,-1311,-2294,-1943,-1231,-404,-104,-410,-54,-109,-208,97,-424,43,-52,-254,139,-601,101,-160,-445,461,-474,159,0,-337,1625,1920,2035,1064,-165,1187,-303,-156,783,-910,782,-298,-310,764,-972,760,-252,-308,802,-863,698,-274,-322,614,-1054,604,0,0,0,0,0,0,0,0,0,0,0,0,0,0,0,0,0,0,0,0,0,0,0,0,0,0,0,0,0,0,0,0,1266,177,-812,1560,565,1603,234,1296,156,-1471,1421,1586,-1913,1735,1611,1520,1609,1628,865,1171,1151,503,1321,433,705,1062,84,1277,454,-943,1574,1563,-1583,-482,402,356,-745,893,-605,107,360,-851,908,-535,178,516,-599,1098,-153,406,625,-368,1093,-168,489,575,-345,1056,-359,494,523,-331,1054,-375,543,458,-363,1073,-446,542,453,-374,1079,-422,559,467,-324,1080,-415,591,392,-351,998,0,0,0,0,0,0,0,0,0,0,0,0,0,0,0,0,0,0,0,0,0,0,0,0,0,0,0,0,0,0,0,0,0,0,0,0,0,0,0,0,0,0,-535,-645,456,-1213,419,-566,-610,453,-1188,474,-522,-474,581,-1065,599,-447,-364,617,-1012,697,-417,-328,672,-994,730,-327,-263,801,-795,878,-133,-70,924,-606,965,-51,60,680,-834,801,-523,-191,519,-1027,757,-546,-167,745,-723,947,-207,114,850,-518,1073,-99,262,880,-423,1142,-28,253,1082,403,-2271,1770,-2228,684,-336,1277,-3,506,743,-423,1174,-245,437,664,-501,1150,-337,0,0,0,0,0,0,0,0,0,0,0,0,0,0,0,0,0,0,0,0,0,0,0,0,0,0,0,0,0,0,0,0,0,0,0,0,0,0,0,0,0,0,0,0,-1025,401,-72,-702,819,-985,450,-45,-631,840,-937,519,-53,-559,855,-929,562,-64,-518,845,-909,597,-90,-460,833,-884,657,-117,-410,833,-879,690,-132,-349,849,-853,731,-148,-325,814,-892,705,-220,-342,755,-926,686,-285,-333,716,-937,716,-311,-301,710,-957,706,-354,-311,663,-985,688,-406,-310,630,-997,703,-429,-286,605,-994,694,-482,-286,518,-1023,661,-549,-256,486,0,0,0,0,0,0,0,0,0,0,0,0,0,0,0,0,0,0,0,0,0,0,0,0,0,0,0,0,0,0,0,0,0,0,0,0,0,0,0,0,0,0,0,0,0,-1056,598,1162,-1810,2069,-1762,637,-1053,142,63,-906,686,-935,139,50,-869,682,-940,164,9,-834,670,-950,216,-12,-784,695,-944,257,-34,-746,693,-952,287,-67,-716,682,-961,340,-70,-644,706,-977,345,-131,-656,676,-976,393,-149,-611,685,-984,415,-191,-610,652,-1011,417,-241,-595,641,-1018,453,-262,-562,646,-1034,474,-283,-551,627,-1048,452,-204,-747,-70,2294,0,0,0,0,0,0,0,0,0,0,0,0,0,0,0,0,0,0,0,0,0,0,0,0,0,0,0,0,0,0,0,0,0,0,0,0,0,0,0,0,0,0,0,0,0,0,0,-196,373,-1000,697,-633,-121,423,-965,733,-643,-124,376,-985,685,-711,-139,305,-1016,641,-771,-125,275,-1018,641,-801,-117,223,-1028,642,-832,-92,196,-1026,649,-862,-71,164,-1028,700,-930,-308,2053,-1252,-1868,2131,148,34,-1103,583,1132,-1875,2012,-1726,662,-1146,-166,2233,-1762,-1876,2123,195,-167,-911,599,-1017,83,-44,-909,622,-1013,128,-69,-864,622,-1009,187,-102,-798,665,0,0,0,0,0,0,0,0,0,0,0,0,0,0,0,0,0,0,0,0,0,0,0,0,0,0,0,0,0,0,0,0,0,0,0,0,0,0,0,0,0,0,0,0,0,0,279,1844,-1748,-1789,2142,577,-453,-656,114,2228,-1854,2145,-206,526,-1142,504,-502,-448,505,-1093,554,-520,-401,481,-1069,592,-521,-265,548,-976,720,-507,-226,526,-1025,594,-631,-298,368,-1060,604,-645,-235,382,-1033,615,-677,-207,352,-1019,642,-688,-142,348,-993,695,-693,-101,346,-989,671,-746,-108,278,-1000,671,-780,-86,246,-1000,666,-820,-66,209,-999,674,-851,-40,248,0,0,0,0,0,0,0,0,0,0,0,0,0,0,0,0,0,0,0,0,0,0,0,0,0,0,0,0,0,0,0,0,0,0,0,0,0,0,0,0,0,0,0,0,0,0,673,-963,289,-37,-746,674,-975,261,-113,-760,599,-1014,258,-186,-727,587,-1037,280,-236,-703,562,-1045,284,-346,-694,503,-1103,350,-349,-626,556,-1082,447,-302,-550,643,-1044,425,-229,-777,-92,2296,-1777,2221,-250,669,-1196,301,1839,-1674,-1782,2135,542,-485,-651,14,2134,-1781,2218,-155,531,-1114,545,-471,-433,520,-1069,554,-502,-410,485,-1072,543,-536,-370,452,-1052,581,-556,0,0,0,0,0,0,0,0,0,0,0,0,0,0,0,0,0,0,0,0,0,0,0,0,0,0,0,0,0,0,0,0,0,0,0,0,0,0,0,0,0,0,0,0,0,0,2035,-1283,-1836,2163,190,78,-1031,662,1174,-1848,2075,-1613,707,-1109,-147,2255,-1659,-1852,2146,246,-101,-899,644,-991,58,-21,-941,617,-1004,90,-54,-916,614,-1011,119,-75,-880,600,-1025,152,-107,-849,590,-1031,164,-178,-813,569,-1067,215,-186,-778,584,-1061,245,-211,-744,596,-1052,282,-242,-726,574,-1065,326,-262,-679,589,-1075,352,-293,-667,577,-1089,361,-332,-651,556,0,0,0,0,0,0,0,0,0,0,0,0,0,0,0,0,0,0,0,0,0,0,0,0,0,0,0,0,0,0,0,0,0,0,0,0,0,0,0,0,0,0,0,0,0,0,0,-513,-377,454,-1086,530,-603,-391,357,-1088,546,-637,-324,365,-1061,578,-653,-276,354,-1056,552,-711,-242,312,-1055,578,-735,-221,275,-1045,598,-759,-178,257,-1037,633,-767,-130,272,-1014,653,-789,-126,229,-1018,645,-829,-98,210,-1023,647,-851,-78,193,-1023,644,-880,-79,208,-1148,553,1188,-1852,1687,-1461,654,-1105,-231,2083,-1539,-1856,2143,154,-3,-1071,606,1114,-1852,0,0,0,0,0,0,0,0,0,0,0,0,0,0,0,0,0,0,0,0,0,0,0,0,0,0,0,0,0,0,0,0,0,0,0,0,0,0,0,0,0,0,0,0,0,0,0,0,-1082,390,-329,-594,606,-1075,457,-336,-591,634,-1185,252,1838,-1727,-1835,2164,544,-435,-709,-87,2240,-1835,2163,-258,584,-1238,290,1725,-1727,-1592,1801,570,-664,-442,449,-1138,481,-551,-453,438,-1107,537,-553,-399,447,-1094,534,-582,-379,396,-1065,590,-590,-317,410,-1054,589,-619,-285,394,-1045,610,-622,-240,378,-1026,627,-648,-197,365,-1004,645,-684,-178,325,-1018,629,-726,0,0,0,0,0,0,0,0,0,0,0,0,0,0,0,0,0,0,0,0,0,0,0,0,0,0,0,0,0,0,0,0,0,0,0,0,0,0,0,0,0,0,0,0,0,0,0,-1804,488,-1131,54,-59,-971,542,-1027,29,-92,-938,544,-1031,71,-114,-894,544,-1030,111,-156,-842,534,-1043,161,-205,-788,517,-1049,226,-275,-715,531,-1075,297,-306,-684,534,-1086,333,-341,-649,541,-1095,376,-355,-631,548,-1103,391,-372,-620,594,-1188,206,1824,-1675,-1786,2115,459,-502,-725,-80,1947,-1788,2211,-273,491,-1263,230,1673,-1689,-1765,1334,489,-712,-439,391,-1145,461,0,0,0,0,0,0,0,0,0,0,0,0,0,0,0,0,0,0,0,0,0,0,0,0,0,0,0,0,0,0,0,0,0,0,0,0,0,0,0,0,0,0,0,0,0,0,-157,224,-1021,608,-803,-121,199,-1020,616,-838,-99,172,-1009,676,-891,-286,1888,-1306,-1792,2207,174,76,-1073,554,1164,-1798,1841,-1734,640,-1119,-157,2178,-1686,-1798,2201,262,-89,-860,662,-957,105,11,-890,653,-961,140,-10,-853,655,-963,181,-29,-817,664,-966,209,-49,-788,658,-969,235,-80,-756,657,-972,273,-105,-720,658,-974,315,-127,-683,661,-975,366,-141,-644,682,0,0,0,0,0,0,0,0,0,0,0,0,0,0,0,0,0,0,0,0,0,0,0,0,0,0,0,0,0,0,0,0,0,0,0,0,0,0,0,0,0,0,0,0,0,0,663,-402,-572,168,2171,-1738,2261,-118,565,-1074,577,-438,-400,555,-1036,583,-461,-371,525,-1032,593,-487,-346,503,-1030,585,-519,-323,466,-1017,594,-553,-284,440,-1012,611,-581,-262,410,-1014,608,-612,-238,378,-1012,606,-647,-202,353,-1001,636,-669,-178,334,-1002,632,-696,-159,304,-1002,631,-728,-138,271,-996,643,-755,-104,258,-991,654,-780,-86,230,-993,653,-809,-48,0,0,0,0,0,0,0,0,0,0,0,0,0,0,0,0,0,0,0,0,0,0,0,0,0,0,0,0,0,0,0,0,0,0,0,0,0,0,0,0,0,0,0,0,0,0,0,630,-992,170,-64,-829,630,-996,197,-87,-802,617,-998,216,-148,-763,620,-1010,286,-143,-724,642,-1007,308,-164,-694,641,-1007,362,-171,-676,681,-998,352,-190,-695,620,-1031,340,-219,-680,621,-1043,365,-194,-571,708,-993,442,-208,-608,651,-1025,426,-255,-620,585,-1067,405,-320,-612,572,-1083,414,-351,-597,622,-1165,243,1852,-1669,-1776,2222,500,-449,-718,-75,2190,-1772,0,0,0,0,0,0,0,0,0,0,0,0,0,0,0,0,0,0,0,0,0,0,0,0,0,0,0,0,0,0,0,0,0,0,0,0,0,0,0,0,0,0,0,0,0,0,0,355,-941,737,-665,-33,385,-923,774,-671,-17,364,-925,754,-691,78,398,-807,917,-670,121,407,-889,816,-725,63,322,-898,802,-743,102,306,-895,814,-773,86,270,-899,776,-793,145,260,-829,841,-789,199,240,-841,824,-794,248,251,-706,927,-712,425,305,-622,1010,-709,443,280,-658,957,-759,410,239,-640,888,-821,367,77,-553,989,-757,659,258,-446,1121,-681,0,0,0,0,0,0,0,0,0,0,0,0,0,0,0,0,0,0,0,0,0,0,0,0,0,0,0,0,0,0,0,0,0,0,0,0,0,0,0,0,0,0,0,0,0,0,-250,-406,722,-955,662,-273,-365,713,-960,669,-313,-332,705,-947,722,-317,-316,674,-949,730,-353,-260,693,-936,760,-359,-214,695,-921,781,-381,-193,636,-922,802,-422,-138,646,-904,833,-432,-91,661,-882,856,-438,-61,640,-861,893,-444,-16,633,-838,931,-442,11,577,-902,821,-555,-23,522,-889,828,-578,-15,464,-900,802,-627,21,435,-889,806,-669,41,373,-888,0,0,0,0,0,0,0,0,0,0,0,0,0,0,0,0,0,0,0,0,0,0,0,0,0,0,0,0,0,0,0,0,0,0,0,0,0,0,0,0,0,0,0,0,0,0,-751,408,243,-652,957,-752,457,241,-607,971,-752,486,188,-608,938,-805,467,134,-620,896,-832,447,75,-619,855,-859,464,44,-600,844,-875,470,4,-585,828,-891,479,-34,-577,801,-912,483,-82,-563,779,-928,513,-106,-539,774,-940,525,-144,-515,771,-944,572,-151,-485,782,-948,580,-182,-469,755,-947,623,-196,-420,765,-944,644,-224,-398,747,-951,657,0,0,0,0,0,0,0,0,0,0,0,0,0,0,0,0,0,0,0,0,0,0,0,0,0,0,0,0,0,0,0,0,0,0,0,0,0,0,0,0,0,0,0,0,0,0,0,0,-880,855,-503,-28,559,-864,886,-529,13,552,-867,877,-558,29,514,-878,869,-593,34,479,-881,865,-625,41,451,-883,857,-643,68,429,-855,875,-663,104,400,-856,858,-686,144,374,-812,899,-682,205,377,-787,903,-702,209,319,-783,894,-726,251,303,-752,905,-737,295,281,-725,919,-753,324,257,-704,926,-753,379,247,-675,945,-769,399,227,-674,937,-785,413,0,0,0,0,0,0,0,0,0,0,0,0,0,0,0,0,0,0,0,0,0,0,0,0,0,0,0,0,0,0,0,0,0,0,0,0,0,0,0,0,0,0,0,0,0,0,-525,876,-884,549,-47,-543,825,-918,517,-98,-564,763,-958,487,-151,-565,708,-982,488,-216,-541,691,-1003,520,-247,-516,690,-1018,532,-279,-512,670,-1022,555,-306,-500,653,-1043,527,-217,-714,0,2273,-1800,2199,-207,683,-1186,358,1832,-1696,-1600,2192,615,-489,-616,206,2095,-1808,2191,-124,527,-1099,567,-492,-402,511,-1068,578,-517,-372,489,-1053,604,-529,-320,488,-1039,617,0,0,0,0,0,0,0,0,0,0,0,0,0,0,0,0,0,0,0,0,0,0,0,0,0,0,0,0,0,0,0,0,0,0,0,0,0,0,0,0,0,0,0,0,0,0,-110,223,-1032,632,-844,-112,176,-1047,618,-879,-107,141,-1049,657,-948,-335,1917,-1306,-1863,2136,129,32,-1124,550,1132,-1873,1884,-1664,665,-1126,-172,2255,-1603,-1876,2123,251,-47,-910,694,-921,150,106,-894,721,-943,149,51,-869,735,-943,188,41,-855,711,-961,182,-10,-839,691,-978,205,-40,-825,663,-998,218,-83,-799,653,-1002,248,-126,-758,657,-1005,317,-126,-705,687,0,0,0,0,0,0,0,0,0,0,0,0,0,0,0,0,0,0,0,0,0,0,0,0,0,0,0,0,0,0,0,0,0,0,0,0,0,0,0,0,0,0,0,0,0,0,-1852,2146,-256,593,-1245,306,1739,-1742,-1547,1949,605,-647,-400,505,-1113,526,-523,-429,486,-1084,558,-540,-380,472,-1070,581,-556,-324,467,-1049,611,-572,-291,443,-1036,619,-607,-253,435,-1031,626,-628,-250,375,-1042,611,-671,-230,343,-1035,625,-696,-201,322,-1027,632,-721,-167,299,-1025,630,-756,-147,263,-1020,639,-786,-121,240,-1018,634,-819,-86,214,-1012,664,-837,-70,0,0,0,0,0,0,0,0,0,0,0,0,0,0,0,0,0,0,0,0,0,0,0,0,0,0,0,0,0,0,0,0,0,0,0,0,0,0,0,0,0,0,0,0,0,0,0,665,-970,216,-58,-786,661,-971,262,-79,-738,677,-968,314,-96,-698,684,-979,333,-131,-683,664,-989,360,-167,-663,658,-1003,371,-201,-638,643,-1016,401,-230,-610,639,-1026,432,-255,-587,642,-1030,450,-280,-563,636,-1038,480,-297,-537,635,-1043,467,-211,-717,-37,2305,-1768,2231,-150,734,-1124,439,1889,-1658,-1456,2231,683,-413,-565,263,2173,-1762,2237,-84,567,-1043,0,0,0,0,0,0,0,0,0,0,0,0,0,0,0,0,0,0,0,0,0,0,0,0,0,0,0,0,0,0,0,0,0,0,0,0,0,0,0,0,0,0,0,0,0,0,0,0,494,-817,901,-617,139,432,-831,870,-676,135,381,-814,885,-699,156,338,-817,870,-721,207,325,-785,894,-737,233,301,-805,867,-779,208,253,-816,832,-801,221,204,-786,832,-816,266,174,-748,839,-814,330,161,-675,884,-796,416,165,-616,926,-759,524,187,-513,998,-727,625,198,-432,1073,-724,654,188,-478,988,-778,572,94,-521,896,-826,544,31,-523,854,-857,532,0,0,0,0,0,0,0,0,0,0,0,0,0,0,0,0,0,0,0,0,0,0,0,0,0,0,0,0,0,0,0,0,0,0,0,0,0,0,0,0,0,0,0,0,0,-428,-594,79,2086,-1722,2277,-96,584,-1056,590,-427,-383,560,-1018,605,-449,-353,535,-1014,606,-476,-318,512,-1007,614,-506,-285,502,-990,645,-500,-220,520,-963,669,-523,-227,463,-979,645,-562,-201,437,-963,666,-580,-165,418,-954,677,-605,-136,392,-944,684,-632,-104,369,-936,694,-657,-70,346,-923,712,-680,-35,330,-915,724,-703,-15,300,-915,723,-734,8,335,0,0,0,0,0,0,0,0,0,0,0,0,0,0,0,0,0,0,0,0,0,0,0,0,0,0,0,0,0,0,0,0,0,0,0,0,0,0,0,0,0,0,0,0,0,0,0,-943,309,-118,-668,635,-949,339,-144,-633,642,-957,366,-167,-606,640,-958,400,-188,-574,647,-965,431,-205,-560,640,-974,440,-231,-540,631,-975,477,-252,-508,645,-986,486,-277,-505,601,-1005,482,-326,-490,582,-1014,495,-352,-474,564,-1021,472,-292,-641,82,1725,-1633,2366,-129,646,-1122,376,1844,-1538,-1640,1690,610,-448,-533,127,1655,-1641,2358,-88,545,-1029,583,-424,-348,0,0,0,0,0,0,0,0,0,0,0,0,0,0,0,0,0,0,0,0,0,0,0,0,0,0,0,0,0,0,0,0,0,0,0,0,0,0,0,0,0,0,0,0,0,0,-919,728,-664,-16,358,-900,751,-686,5,334,-901,750,-712,36,307,-904,754,-747,49,278,-897,818,-800,-155,2186,-1134,-1710,2288,337,151,-770,850,-761,224,277,-776,884,-755,280,264,-748,877,-779,291,205,-743,860,-816,285,161,-752,811,-847,271,106,-743,780,-864,289,67,-716,772,-877,317,36,-703,750,-896,321,-10,-688,730,-904,358,-40,-644,746,-909,403,0,0,0,0,0,0,0,0,0,0,0,0,0,0,0,0,0,0,0,0,0,0,0,0,0,0,0,0,0,0,0,0,0,0,0,0,0,0,0,0,0,0,0,0,0,0,-671,-30,2225,-1747,2251,-236,571,-1221,275,1757,-1649,-1751,1619,515,-656,-472,421,-1140,420,-554,-532,385,-1147,404,-590,-498,356,-1135,431,-618,-452,340,-1122,458,-641,-398,336,-1104,494,-655,-366,313,-1097,498,-693,-340,289,-1101,502,-722,-339,241,-1121,463,-778,-335,186,-1128,459,-819,-312,153,-1119,479,-845,-270,142,-1115,484,-881,-250,103,-1119,495,-912,-224,86,-1115,504,0,0,0,0,0,0,0,0,0,0,0,0,0,0,0,0,0,0,0,0,0,0,0,0,0,0,0,0,0,0,0,0,0,0,0,0,0,0,0,0,0,0,0,0,0,0,49,-149,-938,563,-1078,115,-152,-875,587,-1044,239,-143,-715,714,-947,518,-12,-494,903,-829,635,-21,-363,842,-795,728,-155,-260,817,-847,788,-199,-234,803,-852,794,-248,-212,771,-867,809,-287,-191,753,-873,816,-333,-175,718,-892,824,-371,-166,684,-911,826,-412,-145,666,-917,841,-438,-120,657,-917,857,-461,-97,666,-906,871,-479,-88,632,-918,882,-496,-62,621,0,0,0,0,0,0,0,0,0,0,0,0,0,0,0,0,0,0,0,0,0,0,0,0,0,0,0,0,0,0,0,0,0,0,0,0,0,0,0,0,0,0,0,0,0,0,907,-722,266,293,-743,907,-744,303,265,-714,916,-760,343,228,-706,918,-783,362,193,-693,910,-807,394,157,-683,909,-833,418,128,-664,912,-850,454,110,-645,917,-870,472,85,-634,922,-877,500,72,-611,911,-877,528,28,-571,896,-895,562,-11,-545,886,-897,581,-41,-516,861,-902,598,-77,-480,843,-904,620,-116,-450,822,-905,641,-149,-413,804,-907,665,-182,0,0,0,0,0,0,0,0,0,0,0,0,0,0,0,0,0,0,0,0,0,0,0,0,0,0,0,0,0,0,0,0,0,0,0,0,0,0,0,0,0,0,0,0,0,0,645,-925,853,-471,-104,635,-925,867,-493,-83,621,-928,877,-509,-62,605,-856,916,-532,6,543,-902,897,-566,46,544,-862,895,-608,46,490,-840,896,-604,120,436,-800,902,-650,177,378,-798,895,-681,225,350,-758,910,-701,261,292,-719,901,-752,317,235,-708,905,-818,339,243,-749,957,-757,302,284,-687,894,-754,369,161,-655,875,-867,433,96,-655,918,-855,468,0,0,0,0,0,0,0,0,0,0,0,0,0,0,0,0,0,0,0,0,0,0,0,0,0,0,0,0,0,0,0,0,0,0,0,0,0,0,0,0,0,0,0,0,0,-248,-269,717,-915,763,-303,-227,719,-901,790,-346,-194,696,-915,802,-387,-174,678,-939,811,-404,-171,666,-917,833,-431,-155,672,-924,831,-434,-121,653,-928,843,-473,-124,635,-935,859,-477,-106,640,-926,874,-477,-87,631,-932,877,-484,-81,578,-897,902,-527,-12,578,-913,917,-545,-7,592,-927,900,-545,-33,554,-915,911,-537,17,566,-886,883,-577,44,505,0,0,0,0,0,0,0,0,0,0,0,0,0,0,0,0,0,0,0,0,0,0,0,0,0,0,0,0,0,0,0,0,0,0,0,0,0,0,0,0,0,0,0,0,0,0,0,-849,466,104,-641,927,-866,482,92,-633,930,-879,496,91,-644,931,-881,488,99,-640,927,-878,488,94,-654,939,-871,473,110,-651,934,-865,468,112,-651,930,-860,471,103,-636,925,-870,489,80,-626,925,-874,506,57,-584,904,-882,553,7,-556,902,-892,574,-18,-526,882,-896,586,-58,-500,865,-898,610,-84,-471,846,-885,646,-113,-442,823,-904,645,0,0,0,0,0,0,0,0,0,0,0,0,0,0,0,0,0,0,0,0,0,0,0,0,0,0,0,0,0,0,0,0,0,0,0,0,0,0,0,0,0,0,0,0,0,0,0,0,-919,832,-422,-141,659,-919,844,-450,-123,647,-925,857,-464,-96,653,-913,874,-480,-82,630,-921,880,-496,-50,616,-882,893,-537,-7,558,-895,901,-563,23,524,-874,898,-586,78,515,-853,929,-578,100,498,-834,912,-613,113,453,-820,904,-648,140,413,-813,898,-672,172,380,-799,909,-685,199,362,-783,911,-698,224,335,-767,908,-718,252,305,-751,905,-740,0,0,0,0,0,0,0,0,0,0,0,0,0,0,0,0,0,0,0,0,0,0,0,0,0,0,0,0,0,0,0,0,0,0,0,0,0,0,0,0,0,0,0,0,0,0,0,-595,920,-879,541,26,-572,894,-904,555,-19,-557,870,-914,567,-52,-532,837,-926,568,-115,-515,790,-957,562,-177,-476,784,-929,643,-160,-410,806,-905,670,-181,-374,787,-909,685,-222,-351,758,-924,701,-258,-328,765,-903,741,-249,-283,782,-885,764,-257,-265,756,-900,760,-300,-259,721,-918,760,-341,-244,697,-928,771,-373,-219,694,-924,787,-393,-202,664,-938,794,-428,0,0,0,0,0,0,0,0,0,0,0,0,0,0,0,0,0,0,0,0,0,0,0,0,0,0,0,0,0,0,0,0,0,0,0,0,0,0,0,0,0,0,0,0,0,166,621,-759,989,-515,150,546,-771,893,-682,131,514,-755,1013,-538,268,746,-518,1167,-328,326,411,-821,820,-825,25,159,-973,688,-911,63,122,-896,760,-873,170,121,-835,796,-870,254,98,-785,802,-900,325,84,-718,852,-896,405,86,-674,895,-881,453,73,-643,908,-886,485,52,-629,837,-956,467,-38,-587,863,-920,558,-28,-535,859,-862,628,-56,-442,856,0,0,0,0,0,0,0,0,0,0,0,0,0,0,0,0,0,0,0,0,0,0,0,0,0,0,0,0,0,0,0,0,0,0,0,0,0,0,0,0,0,0,0,0,0,0,838,-423,-141,656,-916,840,-451,-100,624,-920,876,-501,-83,646,-935,876,-488,-84,622,-903,879,-516,-44,577,-895,885,-558,11,542,-887,912,-578,33,539,-884,903,-585,44,514,-854,908,-605,83,499,-847,921,-595,117,490,-830,914,-623,123,451,-824,909,-645,141,418,-812,907,-661,175,401,-794,913,-678,193,368,-785,902,-695,227,332,-763,914,-709,266,0,0,0,0,0,0,0,0,0,0,0,0,0,0,0,0,0,0,0,0,0,0,0,0,0,0,0,0,0,0,0,0,0,0,0,0,0,0,0,0,0,0,0,0,0,0,0,891,-864,535,-6,-509,849,-897,621,-81,-520,897,-923,586,-42,-510,866,-911,598,-65,-496,858,-900,614,-92,-458,832,-896,636,-137,-422,820,-912,657,-158,-402,802,-906,671,-186,-363,765,-889,706,-250,-311,749,-905,735,-287,-267,723,-913,761,-318,-231,694,-897,773,-389,-150,646,-916,845,-448,-131,656,-920,850,-465,-108,639,-930,870,-480,-105,649,-918,869,-484,0,0,0,0,0,0,0,0,0,0,0,0,0,0,0,0,0,0,0,0,0,0,0,0,0,0,0,0,0,0,0,0,0,0,0,0,0,0,0,0,0,0,0,0,0,0,306,-794,903,-730,235,346,-818,945,-689,189,385,-781,909,-691,215,348,-782,922,-704,234,349,-768,911,-710,249,318,-739,905,-728,296,260,-708,889,-763,367,178,-678,923,-827,397,185,-698,929,-807,389,163,-647,905,-846,448,131,-678,934,-851,431,145,-664,919,-833,449,105,-629,900,-852,505,35,-576,908,-899,573,22,-604,968,-906,509,70,-628,919,-888,0,0,0,0,0,0,0,0,0,0,0,0,0,0,0,0,0,0,0,0,0,0,0,0,0,0,0,0,0,0,0,0,0,0,0,0,0,0,0,0,0,0,0,0,0,0,-207,-353,778,-908,705,-234,-326,760,-909,723,-265,-296,746,-905,742,-302,-267,732,-917,762,-318,-248,720,-912,773,-343,-218,702,-915,795,-370,-197,690,-924,800,-394,-173,668,-919,823,-420,-137,643,-909,844,-475,-88,620,-925,882,-509,-73,623,-928,885,-511,-55,600,-905,883,-538,-9,559,-895,895,-574,21,534,-891,895,-589,41,509,-862,889,-592,88,434,-793,889,0,0,0,0,0,0,0,0,0,0,0,0,0,0,0,0,0,0,0,0,0,0,0,0,0,0,0,0,0,0,0,0,0,0,0,0,0,0,0,0,0,0,0,0,0,-804,413,164,-653,936,-836,431,156,-680,897,-842,444,109,-640,921,-864,480,98,-632,934,-872,489,80,-628,920,-884,500,59,-596,912,-881,539,24,-554,878,-875,577,-50,-494,864,-902,612,-84,-484,860,-915,625,-85,-485,866,-910,613,-91,-473,843,-901,626,-118,-433,817,-897,658,-159,-395,792,-892,670,-214,-325,732,-896,737,-286,-274,736,-914,754,-313,-248,0,0,0,0,0,0,0,0,0,0,0,0,0,0,0,0,0,0,0,0,0,0,0,0,0,0,0,0,0,0,0,0,0,0,0,0,0,0,0,0,0,0,0,0,0,0,-907,896,-543,-17,577,-893,904,-550,20,547,-870,875,-587,62,460,-832,898,-639,121,433,-828,916,-640,150,421,-811,915,-651,178,396,-807,904,-694,184,387,-827,939,-673,159,429,-826,913,-654,156,404,-801,907,-673,187,373,-782,906,-686,226,328,-740,886,-717,302,233,-706,921,-790,348,244,-737,932,-775,322,249,-725,918,-770,330,225,-697,912,-788,377,187,0,0,0,0,0,0,0,0,0,0,0,0,0,0,0,0,0,0,0,0,0,0,0,0,0,0,0,0,0,0,0,0,0,0,0,0,0,0,0,0,0,0,0,0,0,-516,876,-895,597,-64,-489,855,-902,616,-94,-463,843,-897,637,-124,-435,820,-902,655,-156,-404,803,-907,675,-182,-376,790,-909,688,-210,-347,773,-908,706,-245,-313,758,-908,729,-280,-289,743,-912,746,-303,-265,723,-915,760,-331,-229,694,-913,789,-375,-198,691,-925,803,-394,-184,677,-923,815,-414,-163,665,-924,828,-437,-141,646,-919,839,-469,-96,612,-921,870,0,0,0,0,0,0,0,0,0,0,0,0,0,0,0,0,0,0,0,0,0,0,0,0,0,0,0,0,0,0,0,0,0,0,0,0,0,0,0,0,0,0,0,0,0,0,197,376,-783,923,-690,217,372,-763,923,-686,250,350,-738,940,-693,283,322,-729,921,-723,305,274,-701,941,-750,346,275,-708,972,-713,365,289,-684,941,-750,360,235,-692,924,-787,372,192,-687,904,-826,385,141,-687,889,-860,412,111,-671,900,-870,448,94,-647,914,-872,482,77,-623,913,-868,530,49,-563,921,-883,569,16,-556,928,-883,580,14,-531,912,-883,0,0,0,0,0,0,0,0,0,0,0,0,0,0,0,0,0,0,0,0,0,0,0,0,0,0,0,0,0,0,0,0,0,0,0,0,0,0,0,0,0,0,0,0,0,778,-283,-183,744,-884,818,-322,-165,735,-875,847,-339,-140,729,-879,859,-356,-119,721,-875,874,-374,-97,721,-880,868,-407,-102,680,-898,865,-439,-68,675,-876,921,-441,-34,676,-891,888,-497,-74,584,-939,831,-561,-89,517,-953,807,-601,-56,494,-867,909,-578,56,525,-867,901,-604,63,480,-873,888,-639,59,430,-883,850,-669,98,403,-804,914,-639,216,0,0,0,0,0,0,0,0,0,0,0,0,0,0,0,0,0,0,0,0,0,0,0,0,0,0,0,0,0,0,0,0,0,0,0,0,0,0,0,0,0,0,0,0,0,0,0,889,-811,510,164,-592,963,-816,499,120,-608,913,-850,480,66,-605,869,-857,526,37,-530,931,-854,568,34,-537,891,-875,553,-21,-538,852,-901,558,-59,-529,834,-919,565,-86,-519,809,-935,568,-124,-495,795,-934,597,-152,-457,789,-937,624,-179,-428,777,-928,655,-198,-385,775,-924,675,-228,-362,760,-932,685,-253,-337,742,-929,706,-280,-308,726,-927,733,0,0,0,0,0,0,0,0,0,0,0,0,0,0,0,0,0,0,0,0,0,0,0,0,0,0,0,0,0,0,0,0,0,0,0,0,0,0,0,0,0,0,0,0,0,0,0,518,-915,828,-586,-32,487,-922,820,-623,-31,443,-929,803,-664,-14,401,-935,804,-690,21,386,-913,821,-713,40,350,-917,805,-746,60,312,-897,807,-761,107,287,-847,830,-748,211,291,-759,909,-736,277,283,-748,894,-755,308,247,-665,944,-716,444,223,-587,978,-766,518,199,-597,1001,-783,509,200,-597,989,-786,508,181,-595,979,-803,518,157,-593,973,-821,0,0,0,0,0,0,0,0,0,0,0,0,0,0,0,0,0,0,0,0,0,0,0,0,0,0,0,0,0,0,0,0,0,0,0,0,0,0,0,0,0,0,0,0,0,0,-219,-347,821,-897,739,-161,-325,840,-857,753,-150,-278,835,-860,778,-166,-251,897,-805,835,-104,-232,877,-816,800,-166,-250,817,-857,772,-239,-267,744,-896,746,-314,-234,663,-926,770,-421,-214,656,-957,788,-422,-195,660,-935,822,-405,-149,690,-901,863,-386,-103,705,-868,915,-361,-43,741,-809,951,-355,25,724,-790,995,-351,80,732,-746,994,-428,58,579,-878,0,0,0,0,0,0,0,0,0,0,0,0,0,0,0,0,0,0,0,0,0,0,0,0,0,0,0,0,0,0,0,0,0,0,0,0,0,0,0,0,0,0,0,0,0,0,-805,465,157,-625,950,-854,443,127,-656,933,-849,461,144,-632,965,-831,477,174,-632,958,-814,481,163,-610,971,-816,483,134,-593,962,-827,538,122,-566,957,-825,566,64,-509,960,-851,620,51,-506,958,-865,594,12,-520,890,-856,631,-14,-438,920,-841,687,-23,-429,909,-873,642,-76,-459,861,-898,636,-96,-450,803,-952,591,-190,-482,749,-965,605,0,0,0,0,0,0,0,0,0,0,0,0,0,0,0,0,0,0,0,0,0,0,0,0,0,0,0,0,0,0,0,0,0,0,0,0,0,0,0,0,0,0,0,0,0,0,0,0,-1001,728,-496,-223,568,-956,814,-476,-94,603,-903,903,-484,-21,639,-857,913,-493,64,598,-832,972,-525,74,587,-842,944,-533,93,550,-819,954,-573,86,502,-850,893,-604,139,491,-776,958,-583,205,480,-741,972,-611,223,435,-771,947,-647,222,419,-778,921,-670,214,364,-778,901,-714,215,302,-770,884,-735,279,275,-723,906,-762,324,242,-701,924,-769,372,0,0,0,0,0,0,0,0,0,0,0,0,0,0,0,0,0,0,0,0,0,0,0,0,0,0,0,0,0,0,0,0,0,0,0,0,0,0,0,0,0,0,0,0,0,0,-518,833,-906,598,-103,-460,829,-904,636,-137,-427,817,-903,659,-158,-384,803,-905,685,-186,-355,800,-899,705,-209,-331,774,-881,712,-263,-252,714,-884,789,-339,-213,723,-916,798,-344,-199,708,-913,813,-366,-209,715,-911,807,-361,-180,692,-911,822,-391,-166,686,-912,817,-416,-118,636,-913,862,-487,-117,647,-940,856,-474,-108,634,-932,863,-489,-94,636,-933,874,0,0,0,0,0,0,0,0,0,0,0,0,0,0,0,0,0,0,0,0,0,0,0,0,0,0,0,0,0,0,0,0,0,0,0,0,0,0,0,0,0,0,0,0,0,0,349,237,-747,934,-783,301,244,-777,881,-785,286,202,-758,873,-821,308,191,-721,885,-806,373,161,-683,909,-833,408,140,-672,903,-843,443,98,-641,918,-876,472,83,-637,919,-886,483,62,-604,887,-880,535,-9,-569,875,-911,557,-42,-524,849,-910,591,-83,-482,846,-897,628,-111,-455,841,-917,632,-123,-438,814,-893,655,-171,-403,790,-927,671,-192,-389,781,0,0,0,0,0,0,0,0,0,0,0,0,0,0,0,0,0,0,0,0,0,0,0,0,0,0,0,0,0,0,0,0,0,0,0,0,0,0,0,0,0,0,0,0,0,0,858,-384,-121,711,-888,885,-368,-106,719,-873,915,-320,-42,855,-685,1041,-159,97,963,-576,1204,260,291,1548,256,-612,1947,282,1947,333,1605,680,-577,1861,1951,-2048,460,822,1455,268,-511,1957,-576,1957,293,1655,655,-777,1877,1962,-1915,389,865,1413,236,-307,1968,-1338,1968,256,1687,626,-1120,1881,1976,-1433,391,943,1356,192,-28,1983,-1993,1983,195,1678,509,-1329,1879,1990,0,0,0,0,0,0,0,0,0,0,0,0,0,0,0,0,0,0,0,0,0,0,0,0,0,0,0,0,0,0,0,0,0,0,0,0,0,0,0,0,0,0,0,0,0,877,-921,490,-40,-631,778,-986,448,-166,-621,710,-992,535,-169,-483,804,-920,645,-130,-407,829,-882,672,-166,-372,797,-895,710,-183,-325,801,-885,732,-209,-300,782,-891,738,-251,-281,765,-887,768,-268,-242,754,-895,765,-323,-247,690,-924,763,-383,-212,672,-925,798,-410,-176,654,-934,812,-447,-160,628,-926,852,-458,-101,654,-920,866,-473,-82,661,-904,894,-471,0,0,0,0,0,0,0,0,0,0,0,0,0,0,0,0,0,0,0,0,0,0,0,0,0,0,0,0,0,0,0,0,0,0,0,0,0,0,0,0,0,0,0,0,0,0,408,-803,907,-655,218,392,-744,924,-678,255,327,-730,919,-722,295,282,-712,930,-745,330,251,-707,919,-777,343,215,-702,913,-804,354,160,-726,884,-833,380,154,-678,915,-833,417,134,-666,912,-849,444,107,-645,930,-852,486,120,-603,942,-864,494,81,-601,911,-877,510,23,-574,893,-882,566,1,-527,874,-897,590,-46,-493,874,-891,621,-67,-472,847,-896,0,0,0,0,0,0,0,0,0,0,0,0,0,0,0,0,0,0,0,0,0,0,0,0,0,0,0,0,0,0,0,0,0,0,0,0,0,0,0,0,0,0,0,0,0,0,-346,-192,718,-900,806,-380,-180,679,-916,821,-411,-165,653,-922,828,-453,-139,643,-926,848,-468,-110,627,-934,860,-491,-95,603,-933,861,-519,-58,586,-915,861,-561,-33,525,-907,883,-586,17,512,-889,877,-610,48,467,-872,893,-624,90,465,-841,898,-642,112,430,-825,890,-662,146,379,-800,895,-686,203,358,-762,917,-696,252,333,-747,931,-709,283,330,0,0,0,0,0,0,0,0,0,0,0,0,0,0,0,0,0,0,0,0,0,0,0,0,0,0,0,0,0,0,0,0,0,0,0,0,0,0,0,0,0,0,0,0,0,0,0,-777,375,195,-693,908,-820,382,148,-696,892,-853,388,91,-696,873,-888,411,50,-683,769,-977,339,-183,-697,716,-1005,498,-100,-539,859,-911,595,-65,-481,867,-892,622,-91,-458,841,-897,633,-131,-425,815,-900,664,-163,-390,822,-898,731,-100,-344,864,-851,723,-141,-333,817,-888,683,-247,-365,730,-928,700,-280,-307,730,-921,733,-306,-278,710,-958,736,-331,-291,0,0,0,0,0,0,0,0,0,0,0,0,0,0,0,0,0,0,0,0,0,0,0,0,0,0,0,0,0,0,0,0,0,0,0,0,0,0,0,0,0,0,0,0,0,0,-883,932,-562,31,571,-890,909,-563,28,531,-869,901,-586,64,492,-861,907,-606,93,474,-816,888,-617,169,398,-791,911,-679,200,372,-789,926,-691,206,371,-777,909,-691,234,326,-765,916,-727,260,326,-775,922,-718,248,313,-742,906,-729,300,275,-735,926,-757,304,262,-721,912,-768,333,237,-715,921,-782,348,222,-710,917,-781,360,178,-657,902,-824,432,123,-644,0,0,0,0,0,0,0,0,0,0,0,0,0,0,0,0,0,0,0,0,0,0,0,0,0,0,0,0,0,0,0,0,0,0,0,0,0,0,0,0,0,0,0,0,-403,802,-917,681,-181,-399,821,-917,680,-174,-405,822,-916,669,-156,-383,781,-871,679,-242,-273,736,-892,757,-312,-232,720,-905,788,-341,-204,711,-904,808,-366,-180,696,-904,828,-386,-147,691,-899,850,-403,-121,685,-900,868,-421,-108,691,-924,878,-390,-129,681,-873,865,-430,-49,654,-883,914,-461,-12,634,-860,927,-499,34,604,-848,947,-519,69,589,-828,0,0,0,0,0,0,0,0,0,0,0,0,0,0,0,0,0,0,0,0,0,0,0,0,0,0,0,0,0,0,0,0,0,0,0,0,0,0,0,0,0,0,0,0,0,0,0,181,381,-838,874,-750,98,295,-968,738,-855,-36,179,-993,679,-881,34,149,-958,718,-902,76,135,-931,732,-913,97,103,-920,700,-937,127,54,-856,716,-899,281,62,-643,877,-819,562,169,-496,1082,-739,672,265,-562,1054,-815,420,162,-754,794,-891,303,29,-560,883,-758,642,69,-331,1023,-748,783,68,-340,1115,-828,738,221,-657,843,-890,391,-10,-666,794,0,0,0,0,0,0,0,0,0,0,0,0,0,0,0,0,0,0,0,0,0,0,0,0,0,0,0,0,0,0,0,0,0,0,0,0,0,0,0,0,0,0,0,0,0,0,422,-357,-581,648,-1166,287,1864,-1722,-1830,2169,578,-422,-672,9,2245,-1829,2169,-219,652,-1214,342,1805,-1718,-1601,2142,624,-597,-405,542,-1089,555,-470,-423,536,-1065,586,-484,-383,516,-1053,600,-506,-328,515,-1029,638,-518,-302,496,-1008,654,-539,-262,473,-982,693,-556,-211,467,-997,676,-589,-210,426,-1004,650,-629,-192,391,-998,666,-648,-160,371,-987,673,-679,-133,345,0,0,0,0,0,0,0,0,0,0,0,0,0,0,0,0,0,0,0,0,0,0,0,0,0,0,0,0,0,0,0,0,0,0,0,0,0,0,0,0,0,0,0,0,0,0,779,1198,-1793,2205,-1728,686,-1032,164,73,-896,695,-930,136,42,-864,670,-938,156,-31,-771,616,-946,321,-104,-664,682,-950,421,-144,-558,696,-924,454,-330,-410,672,-909,720,-284,-232,725,-839,845,-281,-47,793,-756,1002,-261,29,826,-759,1003,-286,72,824,-734,1054,-290,107,820,-731,1078,-313,122,825,-756,1028,-374,30,704,-840,895,-455,13,594,-822,957,-487,0,0,0,0,0,0,0,0,0,0,0,0,0,0,0,0,0,0,0,0,0,0,0,0,0,0,0,0,0,0,0,0,0,0,0,0,0,0,0,0,0,0,0,0,0,0,323,-818,873,-734,206,309,-797,884,-746,231,294,-787,882,-759,252,275,-774,880,-773,277,252,-760,891,-781,293,230,-746,872,-801,299,175,-723,858,-815,345,149,-686,876,-827,374,144,-703,844,-843,320,66,-694,775,-851,421,56,-599,845,-849,473,39,-585,840,-868,462,-3,-581,800,-889,466,-57,-560,764,-906,517,-95,-498,797,-896,594,-99,-449,824,-894,621,0,0,0,0,0,0,0,0,0,0,0,0,0,0,0,0,0,0,0,0,0,0,0,0,0,0,0,0,0,0,0,0,0,0,0,0,0,0,0,0,0,0,0,0,0,224,-256,1202,-546,804,215,-420,916,-823,468,-45,-528,720,-902,474,-223,-554,619,-1043,442,-288,-533,647,-1049,454,-271,-685,616,-1100,259,-237,-742,564,-1052,188,-191,-880,475,828,-1693,2181,-1693,321,-1322,-125,1840,-1600,-1689,2310,200,-442,-874,396,779,-1678,2321,-1678,272,-1170,284,-390,-561,425,-1080,306,-472,-594,351,-1098,270,-515,-468,375,-1115,322,-564,-641,281,-1151,0,0,0,0,0,0,0,0,0,0,0,0,0,0,0,0,0,0,0,0,0,0,0,0,0,0,0,0,0,0,0,0,0,0,0,0,0,0,0,0,0,0,0,0,0,0,1388,-1527,-1055,-1276,418,-895,-364,677,-1311,-1608,2391,42,151,-1105,373,1328,-1598,-394,-1598,440,-935,-134,101,-1006,468,-823,-179,75,-989,451,-816,-107,54,-904,508,-846,-86,20,-919,477,-859,-55,3,-908,482,-865,-40,-6,-891,492,-871,-14,-8,-862,507,-881,-1,-31,-872,479,-902,-5,-75,-825,477,-914,68,-110,-821,478,-950,65,-143,-809,470,-967,85,-107,-923,424,1006,0,0,0,0,0,0,0,0,0,0,0,0,0,0,0,0,0,0,0,0,0,0,0,0,0,0,0,0,0,0,0,0,0,0,0,0,0,0,0,0,0,0,0,0,-955,383,-359,-470,444,-934,414,-381,-433,431,-942,419,-413,-414,409,-950,416,-447,-400,375,-951,431,-480,-381,354,-968,429,-520,-397,326,-1016,368,-550,-407,276,-964,417,-576,-286,277,-955,491,-625,-282,256,-1005,446,-658,-298,221,-979,455,-663,-203,282,-1044,387,1446,-1462,-665,-1392,489,-824,-256,648,-1333,-1522,2476,108,189,-938,464,1388,-1457,-573,-1520,534,-846,-111,824,-1433,0,0,0,0,0,0,0,0,0,0,0,0,0,0,0,0,0,0,0,0,0,0,0,0,0,0,0,0,0,0,0,0,0,0,0,0,0,0,0,0,0,0,0,0,-465,645,-882,518,-202,-407,633,-894,568,-240,-373,670,-906,581,-228,-383,668,-901,558,-241,-392,638,-909,551,-257,-406,615,-919,530,-265,-406,593,-887,542,-290,-326,566,-872,595,-340,-238,569,-849,667,-362,-183,571,-850,689,-372,-179,562,-836,668,-381,-111,528,-757,781,-416,17,539,-770,824,-461,54,520,-758,838,-480,98,491,-744,837,-521,121,447,-737,0,0,0,0,0,0,0,0,0,0,0,0,0,0,0,0,0,0,0,0,0,0,0,0,0,0,0,0,0,0,0,0,0,0,0,0,0,0,0,0,0,0,0,0,0,0,0,303,186,-645,803,-735,329,160,-611,795,-737,388,124,-550,827,-760,445,104,-538,838,-765,465,90,-519,831,-767,492,72,-491,841,-769,515,57,-474,828,-769,541,35,-429,842,-771,586,16,-401,847,-779,608,-13,-379,829,-790,634,-39,-353,834,-791,649,-66,-337,810,-804,657,-105,-325,778,-824,647,-158,-317,737,-845,651,-200,-314,697,-875,642,-240,-322,667,0,0,0,0,0,0,0,0,0,0,0,0,0,0,0,0,0,0,0,0,0,0,0,0,0,0,0,0,0,0,0,0,0,0,0,0,0,0,0,0,0,0,0,0,0,0,497,-517,-317,333,-954,446,-552,-339,275,-970,404,-597,-344,229,-956,423,-653,-299,186,-987,432,-728,-216,171,-989,419,-851,-201,25,-1029,507,-891,-117,75,-1026,539,-914,-114,44,-1026,526,-970,-106,1,-1044,499,-1000,-67,-43,-1020,510,-1036,-102,-78,-1346,380,-872,-898,1873,723,-14,1782,47,620,1284,-217,1407,257,505,1441,-45,-511,2068,-1644,2068,84,1544,196,694,0,0,0,0,0,0,0,0,0,0,0,0,0,0,0,0,0,0,0,0,0,0,0,0,0,0,0,0,0,0,0,0,0,0,0,0,0,0,0,0,0,0,0,0,0,0,372,1239,139,-634,-605,-192,-1054,239,-585,-797,229,-1342,33,-721,-724,271,-1283,190,-590,-718,322,-1220,220,-593,-690,323,-1206,280,-589,-637,279,-1177,340,-571,-512,391,-1187,356,-608,-542,325,-1138,392,-609,-493,328,-1112,424,-611,-412,339,-1099,472,-629,-391,333,-1064,480,-614,-350,344,-1040,519,-611,-305,346,-1007,553,-595,-314,305,-953,603,-575,-194,407,-949,626,-531,-296,424,0,0,0,0,0,0,0,0,0,0,0,0,0,0,0,0,0,0,0,0,0,0,0,0,0,0,0,0,0,0,0,0,0,0,0,0,0,0,0,0,0,0,0,0,281,-870,691,-786,62,170,-842,675,-783,49,148,-791,778,-766,132,182,-801,701,-806,119,124,-836,617,-854,36,29,-860,545,-873,37,-31,-738,620,-815,248,71,-654,726,-836,207,33,-765,565,-831,-83,98,-809,-659,2416,-1583,-1583,-497,735,1233,202,-57,162,-598,2409,-878,1869,822,579,1745,221,-524,2356,1801,2334,-1571,-1673,-1558,-710,-362,-24,135,-123,249,-47,108,170,-90,0,0,0,0,0,0,0,0,0,0,0,0,0,0,0,0,0,0,0,0,0,0,0,0,0,0,0,0,0,0,0,0,0,0,0,0,0,0,0,0,0,0,0,-570,-523,208,-914,812,-435,-488,385,-1299,-77,-752,-835,-105,-1160,130,-707,-632,63,-1153,105,-752,-546,104,-1085,302,-645,-413,178,-1142,215,-754,-629,-20,-1191,100,-840,-969,969,318,-1862,927,-557,-157,-1194,-75,-861,-903,217,-1054,-146,-186,-770,64,565,-718,-148,-1940,885,293,-369,1508,185,218,2021,2001,-1185,-720,4,-680,-180,688,-1723,-1326,1968,-10,1579,-295,418,794,-950,803,-472,0,0,0,0,0,0,0,0,0,0,0,0,0,0,0,0,0,0,0,0,0,0,0,0,0,0,0,0,0,0,0,0,0,0,0,0,0,0,0,0,0,0,0,1208,159,-1896,1619,1739,-2260,-130,508,979,-285,-670,1707,-2292,1707,-208,1333,120,-1719,1495,1678,-2000,-84,533,977,-249,-471,1642,-2239,1642,16,1370,348,-1338,1490,1610,-582,626,968,1004,408,-180,1579,-1772,1033,993,1631,1582,1547,1549,1554,1610,1542,730,1542,1554,1502,1595,1575,677,341,321,-271,-311,-411,-216,-360,-1322,-1659,1434,1529,1444,-572,473,614,12,50,1518,-2480,597,62,1318,238,-1420,1588,1506,1506,2,914,0,0,0,0,0,0,0,0,0,0,0,0,0,0,0,0,0,0,0,0,0,0,0,0,0,0,0,0,0,0,0,0,0,0,0,0,0,1174,20,-1331,1331,1475,1475,-179,887,379,-290,1359,1476,-2523,234,2,1209,51,859,772,303,1215,179,942,542,147,1176,-50,873,714,205,1326,399,-1100,1452,1514,1514,-276,945,347,-463,1425,1534,-2464,23,7,1054,-375,849,219,-47,966,-519,813,126,-60,940,-575,834,99,-121,1093,-279,-1110,1599,656,1599,71,1234,506,-290,1514,1615,-1953,350,648,1277,282,-315,1637,662,1637,0,0,0,0,0,0,0,0,0,0,0,0,0,0,0,0,0,0,0,0,0,0,0,0,0,0,0,0,0,0,0,0,0,0,0,0,0,0,0,0,0,0,0,0,503,-762,892,-655,137,322,-855,820,-773,122,220,-863,763,-867,124,96,-880,669,-981,181,-21,-824,737,-983,314,-29,-774,851,-771,522,121,-343,834,-836,609,-201,-388,693,-956,604,-361,-302,565,-925,721,-526,-151,536,-910,821,-661,-93,551,-1039,833,-571,-147,538,-948,762,-599,-33,397,-886,825,-690,79,352,-859,837,-740,125,327,-869,877,-716,122,326,-785,0,0,0,0,0,0,0,0,0,0,0,0,0,0,0,0,0,0,0,0,0,0,0,0,0,0,0,0,0,0,0,0,0,0,0,0,0,0,0,0,0,0,0,0,0,0,-970,659,-225,-455,843,-1016,639,-94,-620,939,-992,480,66,-699,918,-904,418,82,-691,882,-899,426,64,-697,922,-869,467,167,-619,1007,-732,560,279,-509,1107,-657,625,443,-521,1212,-480,598,588,-387,1200,-401,618,409,-372,1042,-698,577,169,-545,987,-795,545,99,-613,913,-907,472,33,-650,878,-939,501,31,-703,950,-812,534,171,-545,950,-830,502,-13,0,0,0,0,0,0,0,0,0,0,0,0,0,0,0,0,0,0,0,0,0,0,0,0,0,0,0,0,0,0,0,0,0,0,0,0,0,0,0,0,0,0,0,0,0,0,0,-904,887,-539,142,571,-797,1022,-440,212,659,-691,1078,-445,187,631,-747,995,-520,118,500,-849,878,-658,60,398,-896,833,-705,73,338,-884,804,-769,84,264,-902,796,-783,134,238,-834,840,-787,211,254,-785,860,-792,244,202,-776,874,-810,280,197,-761,862,-838,283,146,-772,840,-883,285,103,-809,837,-922,253,142,-871,852,-883,175,240,-853,877,-749,233,329,-737,0,0,0,0,0,0,0,0,0,0,0,0,0,0,0,0,0,0,0,0,0,0,0,0,0,0,0,0,0,0,0,0,0,0,0,0,0,0,0,0,0,0,0,0,-447,1034,-637,599,227,-435,995,-703,601,144,-468,964,-760,594,121,-448,968,-733,640,114,-400,969,-731,676,86,-372,968,-736,708,65,-346,967,-739,727,33,-318,958,-744,764,0,-294,934,-763,773,-74,-279,897,-803,791,-106,-249,893,-789,820,-123,-206,854,-790,789,-257,-215,593,-1005,698,-514,-274,544,-1037,724,-543,-244,559,-1030,727,-565,-229,542,-1030,0,0,0,0,0,0,0,0,0,0,0,0,0,0,0,0,0,0,0,0,0,0,0,0,0,0,0,0,0,0,0,0,0,0,0,0,0,0,0,0,0,0,0,0,0,0,0,518,23,-555,870,-902,541,-65,-528,826,-902,621,-68,-441,829,-912,624,-157,-455,775,-928,636,-197,-399,769,-897,690,-222,-316,754,-902,730,-271,-284,701,-923,735,-329,-222,688,-816,797,-396,-123,610,-881,806,-444,-66,765,-730,758,-508,-66,526,-881,818,-527,-78,573,-909,806,-522,-124,529,-973,819,-537,-169,572,-969,811,-539,-160,599,-989,807,-507,-159,644,0,0,0,0,0,0,0,0,0,0,0,0,0,0,0,0,0,0,0,0,0,0,0,0,0,0,0,0,0,0,0,0,0,0,0,0,0,0,0,0,0,0,0,0,0,0,1167,-156,317,126,-668,826,-784,328,95,-809,885,-725,398,291,-699,840,-771,312,137,-668,823,-831,358,177,-664,876,-762,350,175,-645,834,-788,340,113,-641,857,-783,382,118,-604,877,-786,366,12,-689,746,-940,340,-82,-739,880,-914,408,108,-795,846,-959,303,293,-747,879,-812,284,241,-703,968,-730,376,323,-670,971,-710,351,204,-695,931,-782,385,194,0,0,0,0,0,0,0,0,0,0,0,0,0,0,0,0,0,0,0,0,0,0,0,0,0,0,0,0,0,0,0,0,0,0,0,0,0,0,0,0,0,0,0,0,0,0,841,-887,655,-138,-410,811,-904,679,-158,-377,819,-883,705,-178,-354,789,-896,695,-249,-351,747,-915,726,-251,-292,753,-907,742,-286,-270,728,-908,754,-334,-239,707,-910,793,-347,-199,709,-908,798,-380,-173,676,-916,820,-421,-151,672,-914,843,-430,-120,656,-916,856,-461,-100,638,-925,868,-487,-81,631,-904,884,-494,-27,599,-887,897,-539,1,551,-889,899,-576,0,0,0,0,0,0,0,0,0,0,0,0,0,0,0,0,0,0,0,0,0,0,0,0,0,0,0,0,0,0,0,0,0,0,0,0,0,0,0,0,0,0,0,0,0,0,227,-709,911,-787,358,186,-691,912,-813,396,168,-674,915,-829,427,153,-659,924,-837,446,129,-647,927,-851,466,108,-639,927,-864,486,91,-629,926,-864,496,54,-595,900,-879,536,10,-560,886,-895,577,-12,-518,888,-895,588,-58,-507,863,-898,607,-88,-483,837,-907,621,-116,-448,813,-912,652,-136,-408,815,-906,662,-175,-385,792,-908,684,-204,-355,0,0,0,0,0,0,0,0,0,0,0,0,0,0,0,0,0,0,0,0,0,0,0,0,0,0,0,0,0,0,0,0,0,0,0,0,0,0,0,0,0,0,0,0,0,0,0,0,-473,-99,634,-915,873,-474,-38,619,-890,890,-518,-6,575,-889,918,-530,26,556,-882,898,-580,32,515,-864,905,-598,72,492,-857,908,-604,93,451,-838,894,-648,126,428,-828,894,-664,149,389,-804,910,-671,193,372,-806,904,-702,204,389,-776,936,-673,219,366,-772,924,-692,223,320,-769,912,-714,263,300,-739,917,-743,284,273,-728,910,-755,326,241,-716,0,0,0,0,0,0,0,0,0,0,0,0,0,0,0,0,0,0,0,0,0,0,0,0,0,0,0,0,0,0,0,0,0,0,0,0,0,0,0,0,0,0,0,0,0,0,-904,562,-42,-527,864,-904,589,-73,-487,861,-902,614,-92,-461,812,-910,639,-140,-424,813,-899,666,-168,-386,792,-904,688,-199,-349,775,-901,715,-233,-317,754,-905,733,-270,-274,745,-910,753,-305,-267,709,-918,766,-336,-226,704,-919,792,-358,-210,685,-926,794,-396,-199,660,-943,800,-419,-176,666,-922,833,-416,-135,667,-919,842,-447,-122,654,-912,870,-458,-103,0,0,0,0,0,0,0,0,0,0,0,0,0,0,0,0,0,0,0,0,0,0,0,0,0,0,0,0,0,0,0,0,0,0,0,0,0,0,0,0,0,0,0,0,0,0,-774,904,-699,225,332,-758,907,-726,260,301,-738,910,-745,286,249,-731,904,-769,333,231,-707,907,-790,373,213,-693,915,-800,393,184,-674,927,-813,413,157,-673,915,-836,431,139,-648,926,-848,454,113,-647,919,-864,477,93,-633,929,-862,493,71,-599,890,-885,509,-20,-576,853,-920,569,-31,-525,887,-896,590,-56,-507,862,-892,616,-79,-467,852,-898,635,0,0,0,0,0,0,0,0,0,0,0,0,0,0,0,0,0,0,0,0,0,0,0,0,0,0,0,0,0,0,0,0,0,0,0,0,0,0,0,0,0,0,0,0,0,0,-200,700,-914,803,-380,-175,687,-920,812,-413,-166,669,-923,820,-437,-139,656,-922,846,-456,-121,648,-925,853,-475,-97,636,-927,873,-493,-94,627,-904,886,-489,-40,593,-897,908,-529,-26,584,-904,898,-540,-2,565,-891,903,-562,17,537,-887,901,-583,43,516,-872,900,-602,64,491,-860,904,-615,88,472,-845,904,-630,110,438,-832,904,-645,145,423,0,0,0,0,0,0,0,0,0,0,0,0,0,0,0,0,0,0,0,0,0,0,0,0,0,0,0,0,0,0,0,0,0,0,0,0,0,0,0,0,0,0,0,0,0,0,0,0,409,162,-677,914,-831,431,143,-660,919,-849,446,125,-655,916,-862,462,113,-637,914,-876,484,90,-628,919,-865,513,63,-594,910,-872,536,8,-564,895,-891,565,-27,-539,882,-887,600,-45,-504,857,-913,596,-85,-477,856,-898,626,-100,-437,846,-888,650,-137,-416,822,-903,663,-164,-392,803,-900,680,-203,-374,775,-912,694,-229,-337,762,-908,721,-258,-312,0,0,0,0,0,0,0,0,0,0,0,0,0,0,0,0,0,0,0,0,0,0,0,0,0,0,0,0,0,0,0,0,0,0,0,0,0,0,0,0,0,0,0,0,0,0,0,900,-514,14,563,-882,905,-566,30,523,-875,899,-602,54,508,-863,899,-608,82,481,-849,899,-627,100,437,-836,909,-640,139,426,-829,900,-666,148,407,-812,911,-661,180,383,-797,904,-682,197,323,-791,907,-704,248,333,-748,915,-722,266,278,-753,903,-755,293,256,-739,913,-761,321,240,-714,908,-782,355,218,-697,913,-797,381,187,-678,915,-815,412,157,-663,0,0,0,0,0,0,0,0,0,0,0,0,0,0,0,0,0,0,0,0,0,0,0,0,0,0,0,0,0,0,0,0,0,0,0,0,0,0,0,0,0,0,0,0,0,821,-907,651,-156,-408,805,-905,673,-181,-375,795,-902,690,-209,-336,778,-907,712,-242,-317,759,-907,732,-266,-287,739,-907,755,-298,-258,737,-915,763,-314,-232,716,-911,779,-353,-207,708,-912,801,-369,-182,691,-914,816,-398,-166,675,-918,827,-422,-141,663,-919,844,-446,-123,646,-925,850,-478,-107,631,-929,859,-489,-73,607,-916,862,-534,-46,570,-903,880,-556,2,0,0,0,0,0,0,0,0,0,0,0,0,0,0,0,0,0,0,0,0,0,0,0,0,0,0,0,0,0,0,0,0,0,0,0,0,0,0,0,0,0,0,0,0,0,294,-741,913,-744,299,260,-723,912,-765,333,233,-707,919,-784,358,214,-691,917,-798,384,180,-681,916,-820,408,155,-668,923,-830,434,134,-655,921,-849,457,112,-643,921,-862,480,92,-619,920,-864,507,53,-595,904,-875,537,9,-557,885,-898,571,-26,-532,877,-904,586,-54,-507,863,-901,605,-80,-474,844,-900,628,-114,-443,823,-903,647,-149,-407,805,0,0,0,0,0,0,0,0,0,0,0,0,0,0,0,0,0,0,0,0,0,0,0,0,0,0,0,0,0,0,0,0,0,0,0,0,0,0,0,0,0,0,0,0,0,0,0,-690,141,377,-834,869,-709,155,338,-827,882,-740,150,312,-842,868,-752,149,298,-848,859,-752,161,269,-852,812,-796,186,225,-833,817,-839,189,181,-837,819,-857,201,161,-839,812,-878,197,137,-856,802,-896,192,140,-875,807,-893,156,136,-912,785,-892,107,108,-906,735,-943,117,71,-921,728,-965,119,51,-946,720,-993,87,57,-996,715,-993,29,106,-1080,794,-923,-62,572,0,0,0,0,0,0,0,0,0,0,0,0,0,0,0,0,0,0,0,0,0,0,0,0,0,0,0,0,0,0,0,0,0,0,0,0,0,0,0,0,0,0,-338,215,641,-580,1002,-345,244,614,-590,1002,-376,246,595,-589,996,-370,287,585,-525,1027,-393,318,547,-565,1010,-412,321,544,-516,1021,-405,360,516,-514,1021,-416,376,511,-469,1030,-407,424,482,-472,1026,-440,430,476,-450,1038,-424,465,475,-416,1051,-423,493,465,-408,1060,-399,533,469,-351,1080,-399,573,453,-343,1089,-398,602,452,-358,1187,-230,-1550,1535,1624,244,-388,0,0,0,0,0,0,0,0,0,0,0,0,0,0,0,0,0,0,0,0,0,0,0,0,0,0,0,0,0,0,0,0,0,0,0,0,0,0,0,0,0,0,0,0,-490,871,147,-62,1003,-511,891,127,-15,1009,-446,950,119,49,993,-475,957,64,30,960,-469,981,87,135,983,-393,1049,89,204,981,-370,1084,82,177,1101,-313,-934,1673,-1816,1673,-337,1248,189,-1811,1570,1675,-2324,-171,364,797,-509,1127,108,-1944,1554,1667,-2332,-197,357,927,288,-2391,1654,-2345,495,-492,1135,-163,387,749,-372,1125,-192,416,677,-415,1088,-271,404,638,-400,0,0,0,0,0,0,0,0,0,0,0,0,0,0,0,0,0,0,0,0,0,0,0,0,0,0,0,0,0,0,0,0,0,0,0,0,0,0,0,0,0,0,0,0,-165,1246,-197,-1399,1572,1308,1129,-370,928,441,-473,1298,1650,-2349,62,-99,1207,-255,-1281,1585,728,1650,-308,1022,270,-4,1102,-371,901,281,-1,1081,-372,918,255,33,1047,-389,934,205,55,1035,-386,960,200,99,1039,-359,987,173,122,1013,-367,1004,138,148,1003,-361,1037,136,196,1007,-334,1072,131,240,1002,-331,1096,117,210,1125,-256,-902,1683,-1638,1683,-248,1295,246,0,0,0,0,0,0,0,0,0,0,0,0,0,0,0,0,0,0,0,0,0,0,0,0,0,0,0,0,0,0,0,0,0,0,0,0,0,0,0,0,0,0,0,0,0,529,750,-255,1182,-120,555,726,-225,1175,-146,581,687,-222,1165,-166,610,652,-199,1164,-187,643,610,-183,1155,-211,631,680,-70,348,1620,-2379,245,-146,1259,-113,-1423,1532,1612,996,-283,880,509,-198,1038,1600,-2399,145,-157,1224,-192,-1398,1501,1451,1356,-384,885,372,-497,1365,1564,-2435,6,-146,1144,-302,-1367,1475,795,1541,-388,924,318,-650,1431,1519,-2480,-19,17,986,-383,840,228,0,0,0,0,0,0,0,0,0,0,0,0,0,0,0,0,0,0,0,0,0,0,0,0,0,0,0,0,0,0,0,0,0,0,0,0,0,0,0,0,0,0,0,755,4,-149,877,-558,814,62,-46,898,-508,848,42,-26,915,-454,889,131,101,961,-383,937,69,51,907,-496,885,26,7,902,-458,921,55,94,918,-440,955,41,90,902,-462,946,31,109,897,-458,971,1,120,902,-438,994,13,166,905,-472,1070,207,-1699,1490,1590,-2408,-152,256,961,-374,-951,1608,-2038,1608,-359,1227,142,-1847,1509,1620,-2379,-147,362,934,-370,-864,1629,-2369,0,0,0,0,0,0,0,0,0,0,0,0,0,0,0,0,0,0,0,0,0,0,0,0,0,0,0,0,0,0,0,0,0,0,0,0,0,0,0,0,0,0,1086,-270,430,611,-386,1085,-265,466,594,-371,1080,-317,455,569,-374,1083,-292,502,560,-351,1088,-333,493,540,-365,1078,-330,513,530,-333,1091,-345,530,496,-360,1079,-371,528,496,-333,1079,-359,572,475,-312,1080,-409,571,438,-325,1048,-499,539,285,-464,964,-650,480,236,-504,961,-622,512,252,-434,978,-602,554,245,-397,986,-583,599,233,-363,973,-607,609,177,-362,965,0,0,0,0,0,0,0,0,0,0,0,0,0,0,0,0,0,0,0,0,0,0,0,0,0,0,0,0,0,0,0,0,0,0,0,0,0,0,0,0,0,0,0,0,1031,-584,-1174,1735,-1833,1735,-630,1103,165,-2067,1636,1744,-2255,-190,124,904,-592,976,-46,19,937,-585,991,-63,55,912,-577,1005,-90,82,885,-573,1017,-109,115,868,-559,1026,-133,146,838,-560,1032,-163,171,814,-550,1041,-190,201,782,-550,1046,-220,229,736,-562,1040,-287,236,684,-586,1034,-339,249,645,-602,1031,-381,262,615,-609,1037,-404,284,601,-599,1051,-416,0,0,0,0,0,0,0,0,0,0,0,0,0,0,0,0,0,0,0,0,0,0,0,0,0,0,0,0,0,0,0,0,0,0,0,0,0,0,0,0,0,0,0,0,0,0,412,-412,1080,-512,581,379,-390,1074,-516,612,352,-354,1069,-518,649,313,-328,1062,-551,671,300,-312,1076,-521,708,313,-255,1090,-496,751,292,-223,1076,-515,778,251,-209,1072,-534,798,228,-187,1073,-532,829,221,-150,1078,-522,864,197,-122,1076,-531,889,165,-106,1065,-553,907,137,-148,1162,-469,-1164,1786,-1287,1753,-583,1123,215,-1977,1683,1793,-2206,-156,18,1085,0,0,0,0,0,0,0,0,0,0,0,0,0,0,0,0,0,0,0,0,0,0,0,0,0,0,0,0,0,0,0,0,0,0,0,0,0,0,0,0,0,0,0,0,0,0,0,-423,137,601,-707,965,-443,166,584,-691,973,-468,192,537,-701,979,-509,213,513,-699,983,-540,240,483,-704,987,-574,254,455,-708,974,-616,265,412,-709,974,-642,290,384,-701,971,-665,308,344,-700,965,-692,324,323,-685,963,-687,359,296,-647,965,-707,388,272,-632,958,-709,416,253,-602,959,-703,445,231,-569,956,-704,481,215,-538,959,-699,509,198,-501,956,0,0,0,0,0,0,0,0,0,0,0,0,0,0,0,0,0,0,0,0,0,0,0,0,0,0,0,0,0,0,0,0,0,0,0,0,0,0,0,0,0,0,0,0,0,-700,822,18,-270,1084,-621,-1256,1781,-1738,1366,-726,1033,169,-2151,1384,1788,-2211,-223,-82,1022,-638,-1168,1787,-2126,1778,-662,1040,-158,-83,905,-695,930,-127,-53,876,-692,935,-162,-35,843,-693,939,-190,-8,811,-691,946,-217,27,785,-684,955,-247,51,754,-680,960,-280,78,728,-673,971,-300,113,707,-663,980,-329,138,675,-660,985,-364,162,643,-664,990,-396,183,0,0,0,0,0,0,0,0,0,0,0,0,0,0,0,0,0,0,0,0,0,0,0,0,0,0,0,0,0,0,0,0,0,0,0,0,0,0,0,0,0,0,0,0,0,0,-604,1040,-616,400,350,-593,994,-640,416,306,-581,974,-658,434,253,-563,954,-690,457,211,-551,937,-709,478,172,-534,922,-730,498,136,-515,912,-740,526,107,-489,909,-747,554,85,-462,902,-751,580,47,-438,882,-782,599,-6,-438,855,-824,606,-57,-441,835,-852,615,-102,-432,822,-873,634,-133,-416,813,-884,656,-163,-400,796,-901,667,-202,-381,767,-920,0,0,0,0,0,0,0,0,0,0,0,0,0,0,0,0,0,0,0,0,0,0,0,0,0,0,0,0,0,0,0,0,0,0,0,0,0,0,0,0,0,0,0,0,0,0,0,-31,623,-789,869,-423,10,590,-777,884,-457,51,558,-775,896,-491,85,531,-777,903,-529,102,503,-777,911,-557,126,483,-770,926,-576,151,474,-767,938,-577,177,459,-749,950,-593,208,422,-759,923,-667,206,372,-768,934,-674,243,371,-740,961,-628,178,608,-221,-2346,1732,-2267,106,-728,1121,-447,-1854,1633,1322,-2078,-711,553,302,-594,1014,-631,431,331,-576,0,0,0,0,0,0,0,0,0,0,0,0,0,0,0,0,0,0,0,0,0,0,0,0,0,0,0,0,0,0,0,0,0,0,0,0,0,0,0,0,0,0,0,0,0,0,0,708,62,-315,952,-711,732,34,-294,943,-723,756,5,-277,930,-743,775,-28,-268,922,-802,824,193,-2184,1099,1747,-2251,-335,-143,796,-836,780,-194,-260,802,-862,782,-240,-249,779,-874,783,-273,-230,753,-864,799,-308,-198,719,-871,803,-352,-174,671,-896,790,-416,-171,627,-909,791,-446,-136,616,-874,825,-441,-81,619,-833,856,-425,-22,610,-803,880,-441,12,609,0,0,0,0,0,0,0,0,0,0,0,0,0,0,0,0,0,0,0,0,0,0,0,0,0,0,0,0,0,0,0,0,0,0,0,0,0,0,0,0,0,0,0,0,0,0,1008,-636,286,369,-711,961,-677,302,339,-702,958,-695,320,294,-697,934,-721,349,241,-673,921,-760,378,206,-646,919,-760,412,157,-625,891,-805,427,83,-622,857,-858,447,20,-617,827,-916,451,-45,-627,814,-936,475,-67,-602,805,-938,506,-115,-595,801,-955,530,-107,-541,826,-907,591,-90,-472,843,-885,632,-104,-430,834,-882,659,-138,-390,820,-885,678,-195,0,0,0,0,0,0,0,0,0,0,0,0,0,0,0,0,0,0,0,0,0,0,0,0,0,0,0,0,0,0,0,0,0,0,0,0,0,0,0,0,0,0,0,0,0,0]